Wavelength (nm), T (%)
341.00,23.45
342.00,24.51
343.00,25.95
344.00,27.45
345.00,28.94
346.00,30.43
347.00,31.87
348.00,33.24
349.00,34.99
350.00,36.26
351.00,37.39
352.00,38.88
353.00,40.81
354.00,42.31
355.00,43.68
356.00,44.98
357.00,46.19
358.00,47.32
359.00,48.48
360.00,49.75
361.00,50.94
362.00,51.94
363.00,52.84
364.00,53.65
365.00,54.65
366.00,55.54
367.00,56.24
368.00,57.08
369.00,58.02
370.00,58.37
371.00,58.73
372.00,59.41
373.00,60.61
374.00,61.35
375.00,62.10
376.00,62.70
377.00,63.28
378.00,63.82
379.00,64.35
380.00,64.88
381.00,65.43
382.00,65.99
383.00,66.56
384.00,67.14
385.00,67.66
386.00,68.05
387.00,68.45
388.00,68.84
389.00,69.14
390.00,69.45
391.00,69.76
392.00,70.07
393.00,70.34
394.00,70.62
395.00,70.90
396.00,71.17
397.00,71.43
398.00,71.69
399.00,71.94
400.00,72.21
401.00,72.51
402.00,72.81
403.00,73.12
404.00,73.36
405.00,73.56
406.00,73.75
407.00,73.94
408.00,74.14
409.00,74.34
410.00,74.54
411.00,74.73
412.00,74.92
413.00,75.09
414.00,75.26
415.00,75.43
416.00,75.60
417.00,75.77
418.00,75.93
419.00,76.10
420.00,76.26
421.00,76.43
422.00,76.59
423.00,76.75
424.00,76.92
425.00,77.07
426.00,77.22
427.00,77.36
428.00,77.51
429.00,77.66
430.00,77.82
431.00,77.99
432.00,78.15
433.00,78.31
434.00,78.46
435.00,78.60
436.00,78.74
437.00,78.87
438.00,79.00
439.00,79.13
440.00,79.25
441.00,79.38
442.00,79.49
443.00,79.59
444.00,79.70
445.00,79.80
446.00,79.90
447.00,79.96
448.00,80.02
449.00,80.09
450.00,80.15
451.00,80.20
452.00,80.25
453.00,80.30
454.00,80.35
455.00,80.42
456.00,80.54
457.00,80.66
458.00,80.78
459.00,80.90
460.00,80.98
461.00,81.04
462.00,81.11
463.00,81.17
464.00,81.22
465.00,81.27
466.00,81.32
467.00,81.36
468.00,81.40
469.00,81.42
470.00,81.45
471.00,81.47
472.00,81.49
473.00,81.52
474.00,81.54
475.00,81.56
476.00,81.59
477.00,81.61
478.00,81.64
479.00,81.67
480.00,81.70
481.00,81.74
482.00,81.78
483.00,81.82
484.00,81.86
485.00,81.90
486.00,81.92
487.00,81.94
488.00,81.96
489.00,81.98
490.00,82.00
491.00,82.03
492.00,82.06
493.00,82.10
494.00,82.13
495.00,82.16
496.00,82.19
497.00,82.22
498.00,82.25
499.00,82.21
500.00,82.16
501.00,82.11
502.00,82.06
503.00,82.00
504.00,82.07
505.00,82.14
506.00,82.21
507.00,82.28
508.00,82.31
509.00,82.33
510.00,82.35
511.00,82.37
512.00,82.38
513.00,82.38
514.00,82.38
515.00,82.39
516.00,82.39
517.00,82.42
518.00,82.44
519.00,82.46
520.00,82.48
521.00,82.49
522.00,82.49
523.00,82.49
524.00,82.49
525.00,82.49
526.00,82.49
527.00,82.49
528.00,82.49
529.00,82.49
530.00,82.49
531.00,82.48
532.00,82.47
533.00,82.47
534.00,82.45
535.00,82.43
536.00,82.41
537.00,82.38
538.00,82.37
539.00,82.37
540.00,82.36
541.00,82.36
542.00,82.36
543.00,82.34
544.00,82.32
545.00,82.30
546.00,82.28
547.00,82.28
548.00,82.27
549.00,82.27
550.00,82.27
551.00,82.26
552.00,82.24
553.00,82.22
554.00,82.19
555.00,82.17
556.00,82.13
557.00,82.08
558.00,82.04
559.00,82.00
560.00,81.97
561.00,81.95
562.00,81.93
563.00,81.91
564.00,81.89
565.00,81.84
566.00,81.80
567.00,81.76
568.00,81.72
569.00,81.68
570.00,81.64
571.00,81.60
572.00,81.56
573.00,81.52
574.00,81.49
575.00,81.45
576.00,81.41
577.00,81.40
578.00,81.43
579.00,81.45
580.00,81.48
581.00,81.48
582.00,81.42
583.00,81.37
584.00,81.31
585.00,81.26
586.00,81.21
587.00,81.17
588.00,81.13
589.00,81.10
590.00,81.06
591.00,80.98
592.00,80.90
593.00,80.81
594.00,80.73
595.00,80.65
596.00,80.59
597.00,80.53
598.00,80.47
599.00,80.41
600.00,80.36
601.00,80.28
602.00,80.20
603.00,80.12
604.00,80.04
605.00,79.96
606.00,79.88
607.00,79.84
608.00,79.80
609.00,79.76
610.00,79.72
611.00,79.66
612.00,79.59
613.00,79.53
614.00,79.47
615.00,79.40
616.00,79.34
617.00,79.28
618.00,79.21
619.00,79.15
620.00,79.09
621.00,79.04
622.00,78.98
623.00,78.92
624.00,78.86
625.00,78.80
626.00,78.74
627.00,78.68
628.00,78.64
629.00,78.63
630.00,78.61
631.00,78.59
632.00,78.58
633.00,78.56
634.00,78.55
635.00,78.54
636.00,78.53
637.00,78.27
638.00,77.99
639.00,77.87
640.00,77.85
641.00,77.82
642.00,77.80
643.00,77.73
644.00,77.67
645.00,77.60
646.00,77.54
647.00,77.47
648.00,77.41
649.00,77.34
650.00,77.28
651.00,77.22
652.00,77.17
653.00,77.11
654.00,77.06
655.00,77.01
656.00,76.97
657.00,76.93
658.00,76.90
659.00,76.86
660.00,76.82
661.00,76.76
662.00,76.70
663.00,76.65
664.00,76.60
665.00,76.58
666.00,76.56
667.00,76.54
668.00,76.51
669.00,76.47
670.00,76.43
671.00,76.38
672.00,76.34
673.00,76.30
674.00,76.26
675.00,76.23
676.00,76.19
677.00,76.16
678.00,76.12
679.00,76.09
680.00,76.05
681.00,76.02
682.00,75.97
683.00,75.93
684.00,75.89
685.00,75.84
686.00,75.81
687.00,75.77
688.00,75.74
689.00,75.70
690.00,75.66
691.00,75.61
692.00,75.56
693.00,75.51
694.00,75.46
695.00,75.47
696.00,75.48
697.00,75.49
698.00,75.49
699.00,75.45
700.00,75.38
701.00,75.31
702.00,75.24
703.00,75.17
704.00,75.09
705.00,75.00
706.00,74.91
707.00,74.83
708.00,74.78
709.00,74.73
710.00,74.68
711.00,74.63
712.00,74.57
713.00,74.51
714.00,74.45
715.00,74.39
716.00,74.32
717.00,74.26
718.00,74.19
719.00,74.13
720.00,74.06
721.00,74.00
722.00,73.93
723.00,73.87
724.00,73.80
725.00,73.74
726.00,73.68
727.00,73.62
728.00,73.55
729.00,73.49
730.00,73.43
731.00,73.36
732.00,73.30
733.00,73.23
734.00,73.17
735.00,73.11
736.00,73.04
737.00,72.98
738.00,72.91
739.00,72.85
740.00,72.78
741.00,72.72
742.00,72.66
743.00,72.61
744.00,72.56
745.00,72.51
746.00,72.46
747.00,72.40
748.00,72.34
749.00,72.28
750.00,72.22
751.00,72.17
752.00,72.12
753.00,72.07
754.00,72.03
755.00,71.98
756.00,71.94
757.00,71.91
758.00,71.87
759.00,71.83
760.00,71.78
761.00,71.73
762.00,71.69
763.00,71.64
764.00,71.60
765.00,71.56
766.00,71.52
767.00,71.48
768.00,71.44
769.00,71.39
770.00,71.34
771.00,71.29
772.00,71.24
773.00,71.21
774.00,71.18
775.00,71.15
776.00,71.12
777.00,71.08
778.00,71.03
779.00,70.99
780.00,70.94
781.00,70.90
782.00,70.87
783.00,70.84
784.00,70.80
785.00,70.77
786.00,70.73
787.00,70.69
788.00,70.65
789.00,70.61
790.00,70.57
791.00,70.53
792.00,70.49
793.00,70.45
794.00,70.42
795.00,70.43
796.00,70.43
797.00,70.44
798.00,70.44
799.00,70.34
800.00,70.22
801.00,70.10
802.00,70.02
803.00,70.01
804.00,70.01
805.00,70.00
806.00,69.97
807.00,69.92
808.00,69.86
809.00,69.81
810.00,69.76
811.00,69.73
812.00,69.70
813.00,69.67
814.00,69.64
815.00,69.60
816.00,69.55
817.00,69.49
818.00,69.44
819.00,69.40
820.00,69.37
821.00,69.34
822.00,69.31
823.00,69.28
824.00,69.23
825.00,69.18
826.00,69.13
827.00,69.07
828.00,69.04
829.00,69.01
830.00,68.98
831.00,68.95
832.00,68.91
833.00,68.86
834.00,68.81
835.00,68.76
836.00,68.71
837.00,68.68
838.00,68.65
839.00,68.62
840.00,68.59
841.00,68.54
842.00,68.49
843.00,68.44
844.00,68.39
845.00,68.35
846.00,68.31
847.00,68.28
848.00,68.25
849.00,68.21
850.00,68.17
851.00,68.12
852.00,68.08
853.00,68.03
854.00,67.99
855.00,67.96
856.00,67.93
857.00,67.89
858.00,67.85
859.00,67.81
860.00,67.77
861.00,67.73
862.00,67.69
863.00,67.65
864.00,67.61
865.00,67.57
866.00,67.53
867.00,67.48
868.00,67.44
869.00,67.39
870.00,67.35
871.00,67.31
872.00,67.27
873.00,67.24
874.00,67.20
875.00,67.17
876.00,67.13
877.00,67.09
878.00,67.04
879.00,67.00
880.00,66.96
881.00,66.92
882.00,66.88
883.00,66.84
884.00,66.80
885.00,66.76
886.00,66.73
887.00,66.69
888.00,66.65
889.00,66.61
890.00,66.56
891.00,66.52
892.00,66.47
893.00,66.44
894.00,66.42
895.00,66.40
896.00,66.37
897.00,66.36
898.00,66.38
899.00,66.39
900.00,66.41
901.00,66.42
902.00,66.32
903.00,66.21
904.00,66.09
905.00,65.98
906.00,65.91
907.00,65.86
908.00,65.82
909.00,65.77
910.00,65.72
911.00,65.68
912.00,65.64
913.00,65.60
914.00,65.56
915.00,65.52
916.00,65.47
917.00,65.43
918.00,65.38
919.00,65.33
920.00,65.29
921.00,65.25
922.00,65.20
923.00,65.16
924.00,65.12
925.00,65.09
926.00,65.05
927.00,65.01
928.00,64.97
929.00,64.93
930.00,64.89
931.00,64.85
932.00,64.81
933.00,64.77
934.00,64.73
935.00,64.69
936.00,64.65
937.00,64.62
938.00,64.58
939.00,64.55
940.00,64.51
941.00,64.47
942.00,64.43
943.00,64.38
944.00,64.34
945.00,64.30
946.00,64.28
947.00,64.25
948.00,64.22
949.00,64.19
950.00,64.16
951.00,64.12
952.00,64.08
953.00,64.05
954.00,64.02
955.00,63.99
956.00,63.97
957.00,63.94
958.00,63.92
959.00,63.91
960.00,63.90
961.00,63.89
962.00,63.87
963.00,63.84
964.00,63.81
965.00,63.78
966.00,63.75
967.00,63.72
968.00,63.69
969.00,63.66
970.00,63.63
971.00,63.61
972.00,63.60
973.00,63.58
974.00,63.57
975.00,63.56
976.00,63.54
977.00,63.52
978.00,63.50
979.00,63.49
980.00,63.46
981.00,63.44
982.00,63.42
983.00,63.40
984.00,63.38
985.00,63.35
986.00,63.33
987.00,63.31
988.00,63.29
989.00,63.26
990.00,63.24
991.00,63.22
992.00,63.20
993.00,63.20
994.00,63.20
995.00,63.19
996.00,63.19
997.00,63.26
998.00,63.36
999.00,63.47
